05957 visser,scherillo     altar left angel, leg    09-MAY-2010 11:22:19
# File generated by Mantid:
# Instrument: INES
# Data for spectrum :0
BANK 1 363 363 RALF    33308      266    33308 0.00800 FXYE
     1045.04465        5.28050808        0.18157440
     1053.40501        4.80616625        0.17324969
     1061.83225        4.90197809        0.17520715
     1070.32691        5.22361178        0.18138413
     1078.88952        5.31585054        0.18378240
     1087.52064        4.87279574        0.17501964
     1096.22080        5.01613653        0.17795597
     1104.99057        5.04868404        0.17866757
     1113.83049        4.95066458        0.17768361
     1122.74114        4.92930481        0.17774682
     1131.72307        5.13142918        0.18140553
     1140.77685        4.90976375        0.17739386
     1149.90307        5.01363490        0.18013570
     1159.10229        4.68694880        0.17382523
     1168.37511        4.72118724        0.17550156
     1177.72211        4.72020953        0.17595358
     1187.14389        4.65818138        0.17441240
     1196.64104        4.82711445        0.17903062
     1206.21417        4.91447762        0.18095739
     1215.86388        5.11949706        0.18464802
     1225.59079        4.88787218        0.18023198
     1235.39552        5.02165459        0.18372622
     1245.27868        5.08238384        0.18527121
     1255.24091        4.72703662        0.17844392
     1265.28284        4.76232110        0.17986143
     1275.40510        4.80838142        0.18151014
     1285.60834        4.82707794        0.18182851
     1295.89321        4.78956558        0.18110147
     1306.26035        4.89197369        0.18448219
     1316.71044        4.82943664        0.18328474
     1327.24412        4.73419212        0.18158382
     1337.86207        4.62656599        0.18017639
     1348.56497        4.53004791        0.17791642
     1359.35349        4.73926520        0.18263857
     1370.22832        4.77841769        0.18368401
     1381.19014        4.71814368        0.18278990
     1392.23966        4.36118669        0.17645866
     1403.37758        4.75360803        0.18449364
     1414.60460        4.75001818        0.18493359
     1425.92144        4.65354174        0.18340132
     1437.32881        4.43879513        0.17911168
     1448.82744        4.43483541        0.17929025
     1460.41806        4.61570083        0.18282632
     1472.10140        4.66697909        0.18436223
     1483.87822        4.39163149        0.17936096
     1495.74924        4.51450770        0.18201634
     1507.71524        4.58524616        0.18355714
     1519.77696        4.42622004        0.18127843
     1531.93517        4.39247210        0.18021290
     1544.19065        4.53856359        0.18394152
     1556.54418        4.34185258        0.18037112
     1568.99653        4.43477179        0.18303716
     1581.54851        4.53113138        0.18466001
     1594.20089        4.63534576        0.18725784
     1606.95450        4.19183533        0.17786041
     1619.81014        4.28879789        0.18095284
     1632.76862        4.56062501        0.18671936
     1645.83077        4.64652275        0.18849468
     1658.99741        4.51285705        0.18661505
     1672.26939        4.74566346        0.19194347
     1685.64755        4.80648220        0.19311561
     1699.13273        4.28791077        0.18232272
     1712.72579        4.77831643        0.19300827
     1726.42760        4.59241434        0.18992577
     1740.23902        4.37996077        0.18535519
     1754.16093        4.45526770        0.18751015
     1768.19422        4.48070887        0.18837556
     1782.33977        4.64033743        0.19198201
     1796.59849        4.40375577        0.18722508
     1810.97128        4.30317312        0.18538490
     1825.45905        4.51515791        0.19066889
     1840.06272        4.23601766        0.18410381
     1854.78322        4.34625059        0.18801080
     1869.62149        4.20373691        0.18481829
     1884.57846        4.05705286        0.18136919
     1899.65509        4.41532400        0.18952096
     1914.85233        4.54356583        0.19254783
     1930.17114        4.39810694        0.18968674
     1945.61251        4.40261538        0.19123439
     1961.17741        4.12575524        0.18514022
     1976.86683        4.17385292        0.18528544
     1992.68177        4.03019803        0.18302238
     2008.62322        4.42040248        0.19245778
     2024.69221        4.20777473        0.18762419
     2040.88975        4.11323605        0.18506129
     2057.21686        4.17048938        0.18732357
     2073.67460        4.33581334        0.19080639
     2090.26399        4.12728163        0.18652464
     2106.98611        3.89278873        0.18146174
     2123.84200        4.16294175        0.18866595
     2140.83273        4.01472337        0.18551196
     2157.95939        4.08357814        0.18695207
     2175.22307        4.26517344        0.19183323
     2192.62485        4.36376839        0.19460761
     2210.16585        4.15905783        0.19009731
     2227.84718        4.11132599        0.18835729
     2245.66996        4.07250388        0.18855069
     2263.63532        4.16846161        0.19082546
     2281.74440        4.24250746        0.19221817
     2299.99835        3.91556851        0.18603439
     2318.39834        4.12838818        0.19134601
     2336.94553        4.14298027        0.19178754
     2355.64109        4.26257014        0.19454746
     2374.48622        4.24993957        0.19437322
     2393.48211        4.29252056        0.19588619
     2412.62997        4.17546550        0.19268296
     2431.93101        4.12064309        0.19180685
     2451.38645        3.74234661        0.18219827
     2470.99755        4.05078699        0.18991901
     2490.76553        4.06354966        0.18991650
     2510.69165        4.24340119        0.19499139
     2530.77718        4.04706139        0.19116516
     2551.02340        4.21136871        0.19528355
     2571.43159        4.31880610        0.19729716
     2592.00304        4.21931493        0.19496757
     2612.73907        4.18889332        0.19406078
     2633.64098        4.16777167        0.19377903
     2654.71011        4.35080370        0.19889286
     2675.94779        3.99896220        0.19107656
     2697.35537        4.20078804        0.19565464
     2718.93421        4.22488365        0.19704656
     2740.68569        4.35364760        0.20012832
     2762.61117        4.23446997        0.19819584
     2784.71206        4.31853209        0.19937765
     2806.98976        4.04777205        0.19417545
     2829.44568        4.36295110        0.20227089
     2852.08124        4.44820179        0.20445176
     2874.89789        4.18537082        0.19908825
     2897.89707        4.32348847        0.20272304
     2921.08025        4.35585070        0.20251232
     2944.44889        4.22263865        0.20044692
     2968.00448        4.31837940        0.20292046
     2991.74852        4.53221951        0.20863809
     3015.68251        4.40195606        0.20574199
     3039.80797        4.45586916        0.20794219
     3064.12643        4.26604046        0.20398307
     3088.63944        3.96685971        0.19631035
     3113.34856        4.27103239        0.20437259
     3138.25535        4.35895313        0.20698609
     3163.36139        4.44560775        0.20986789
     3188.66828        4.73910698        0.21693241
     3214.17763        4.23834876        0.20472184
     3239.89105        4.24712056        0.20605540
     3265.81018        4.13160316        0.20296609
     3291.93666        4.30296573        0.20838060
     3318.27215        4.22475183        0.20652659
     3344.81833        4.32723520        0.20910040
     3371.57687        4.23756829        0.20736892
     3398.54949        4.37704224        0.21213610
     3425.73789        4.19061345        0.20769185
     3453.14379        4.86351439        0.22456241
     3480.76894        4.40014362        0.21308763
     3508.61509        4.61796128        0.21891397
     3536.68401        4.16122999        0.20821916
     3564.97748        4.07555904        0.20608168
     3593.49730        4.25162915        0.21196221
     3622.24528        4.72182468        0.22501074
     3651.22324        4.76467835        0.22428931
     3680.43303        4.48676731        0.21884908
     3709.87649        4.68470135        0.22348922
     3739.55551        4.91797781        0.22980647
     3769.47195        4.85454386        0.22863130
     3799.62773        4.72370090        0.22521082
     3830.02475        4.46815156        0.21982084
     3860.66495        4.59087813        0.22226926
     3891.55027        4.90640116        0.23096966
     3922.68267        4.63937666        0.22471002
     3954.06413        4.28535234        0.21677411
     3985.69664        4.97401724        0.23286080
     4017.58221        5.19283564        0.23857934
     4049.72287        5.21316792        0.23889829
     4082.12066        4.76715124        0.22942757
     4114.77762        4.61312366        0.22419457
     4147.69584        4.70462804        0.22580345
     4180.87741        5.00860702        0.23353301
     4214.32443        5.00823541        0.23436610
     4248.03902        4.94940672        0.23184520
     4282.02334        4.54716393        0.22241907
     4316.27952        4.74668680        0.22740310
     4350.80976        4.55937792        0.22181304
     4385.61624        4.73903012        0.22721928
     4420.70117        4.64025006        0.22532423
     4456.06678        4.42237677        0.21859892
     4491.71531        4.75553250        0.22739788
     4527.64903        4.83647227        0.23002681
     4563.87022        4.66249593        0.22520950
     4600.38119        4.85842735        0.23018642
     4637.18424        4.64623181        0.22552258
     4674.28171        5.37170367        0.24227800
     4711.67596        5.08607835        0.23540254
     4749.36937        5.58339824        0.24747006
     4787.36433        4.88746061        0.23189569
     4825.66324        5.13066104        0.23634940
     4864.26855        5.36101580        0.24142484
     4903.18269        4.74388429        0.22761038
     4942.40816        4.97296866        0.23244877
     4981.94742        4.89808141        0.23139619
     5021.80300        4.62217767        0.22471783
     5061.97742        4.99712427        0.23198615
     5102.47324        5.24347973        0.23781614
     5143.29303        4.83987803        0.22953662
     5184.43937        5.01222298        0.23214825
     5225.91489        5.34885947        0.24057739
     5267.72221        5.38441963        0.24093855
     5309.86399        6.28470257        0.26132596
     5352.34290        4.80503689        0.22822070
     5395.16164        5.31166828        0.23941736
     5438.32293        5.52442292        0.24478120
     5481.82952        5.39615445        0.24105629
     5525.68415        5.50305091        0.24316972
     5569.88963        6.09299980        0.25552701
     5614.44874        6.22176459        0.25925335
     5659.36433        4.93745957        0.23105974
     5704.63925        6.14807172        0.25756986
     5750.27636        5.56491200        0.24384528
     5796.27857        5.17170168        0.23466063
     5842.64880        5.42778844        0.24167141
     5889.38999        6.58326657        0.26656970
     5936.50511        5.22983670        0.23794200
     5983.99715        5.93310466        0.25367608
     6031.86913        6.27032301        0.26145828
     6080.12408        4.94452545        0.23192656
     6128.76508        4.63772583        0.22592696
     6177.79520        5.29230354        0.24071223
     6227.21756        5.33698972        0.24269445
     6277.03530        7.23314574        0.28413233
     6327.25158        6.03770855        0.25968529
     6377.86959        4.94909147        0.23541414
     6428.89255        5.48227050        0.24925777
     6480.32369        7.95098842        0.30025372
     6532.16628        5.53375229        0.25054391
     6584.42361        6.35276348        0.26978080
     6637.09900        4.73652490        0.23362155
     6690.19579        6.09116557        0.26628210
     6743.71736        6.80325171        0.28219964
     6797.66710        8.35884569        0.31385871
     6852.04843        5.07836167        0.24525309
     6906.86482        5.52927832        0.25811280
     6962.11974        5.55855915        0.26066990
     7017.81670        5.25750192        0.25483775
     7073.95923        4.77560036        0.24323086
     7130.55091        4.98144616        0.25119301
     7187.59531        6.67840224        0.29091929
     7245.09608        6.62520077        0.29121902
     7303.05684       10.67126713        0.36982449
     7361.48130        7.25240665        0.30727500
     7420.37315        5.49236066        0.26858058
     7479.73613        5.32112968        0.26788626
     7539.57402        4.52761891        0.24809666
     7599.89062        6.41663946        0.29656230
     7660.68974        8.22367714        0.33990778
     7721.97526        5.52701659        0.28084577
     7783.75106        5.26085460        0.27592178
     7846.02107        4.88276110        0.26627696
     7908.78924        4.78841481        0.26463586
     7972.05955        5.09453041        0.27694064
     8035.83603        8.35572008        0.35684090
     8100.12272        7.33018099        0.33457259
     8164.92370       13.30877977        0.45701280
     8230.24309        7.51079972        0.34504933
     8296.08503        9.74876642        0.39672821
     8362.45371        5.96769689        0.31381821
     8429.35334        5.47475012        0.30271178
     8496.78817        5.16791272        0.29641238
     8564.76247        7.83866525        0.36941583
     8633.28057        5.36544261        0.30677722
     8702.34682        5.07877607        0.30072772
     8771.96559        8.18909652        0.38501451
     8842.14132        6.35503287        0.34104953
     8912.87845        5.06854763        0.30775814
     8984.18148        5.12927817        0.31571585
     9056.05493        4.95031698        0.31208506
     9128.50337        5.18839102        0.32267015
     9201.53139        4.62865619        0.30852297
     9275.14365       11.31152648        0.48969620
     9349.34479       11.21661469        0.49141359
     9424.13955        5.12110847        0.33446574
     9499.53267        4.92010982        0.33128765
     9575.52893        6.48050127        0.38282076
     9652.13316       10.37450025        0.49277049
     9729.35023        5.83002322        0.37001878
     9807.18503        6.67304214        0.40390645
     9885.64251       23.38275244        0.76888341
     9964.72765        6.92616543        0.42081473
    10044.44547        5.78206916        0.38731232
    10124.80103        5.98463818        0.40019215
    10205.79944        4.97166909        0.37029897
    10287.44584        5.59726019        0.39742785
    10369.74541        5.02306039        0.38139437
    10452.70337        5.44825515        0.40264840
    10536.32500        6.30350510        0.44020731
    10620.61560        6.07953758        0.43713944
    10705.58052        5.81387531        0.43253828
    10791.22516       20.82167039        0.83231440
    10877.55497        8.72583534        0.54291591
    10964.57541        6.27154866        0.46428411
    11052.29201       16.77430035        0.77223070
    11140.71034       15.58389720        0.74688673
    11229.83603        6.20873461        0.47694590
    11319.67472        4.92373986        0.43106875
    11410.23211        5.58333911        0.46203933
    11501.51397        4.76323397        0.43103542
    11593.52608        5.30597873        0.46060987
    11686.27429        5.12891902        0.46285329
    11779.76448        4.56605965        0.43950234
    11874.00260        4.87217492        0.46863712
    11968.99462        6.08608004        0.53544645
    12064.74658       11.61107773        0.75105339
    12161.26455        5.44307560        0.51994029
    12258.55467        5.20215752        0.50959216
    12356.62310        5.50654687        0.52987322
    12455.47609       12.06583537        0.79616498
    12555.11990        5.38097372        0.54539874
    12655.56086        6.38287837        0.60401921
    12756.80534        5.99326299        0.60192849
    12858.85979        6.29544711        0.61907858
    12961.73067       25.37985705        1.26071312
    13065.42451       10.42186546        0.80851320
    13169.94791        6.02248347        0.62269192
    13275.30749        5.59378696        0.60559929
    13381.50995        4.91906533        0.58298942
    13488.56203        7.74740107        0.75013696
    13596.47053        5.53468602        0.63919670
    13705.24229        4.08218192        0.55376643
    13814.88423        6.04500371        0.67422250
    13925.40330       17.67176147        1.19296263
    14036.80653        8.47014586        0.83626724
    14149.10098        5.27265177        0.66614007
    14262.29379        4.96333102        0.66524566
    14376.39214        4.61723295        0.65635559
    14491.40328       12.17696951        1.07812071
    14607.33450       51.87694407        2.28247342
    14724.19318        8.08303706        0.89006043
    14841.98672        5.17924475        0.72016331
    14960.72262        5.52949548        0.73573003
    15080.40840        6.05585746        0.79782207
    15201.05167       23.91028451        1.59641298
    15322.66008        9.36053549        1.00597082
    15445.24136        5.87095040        0.81951140
    15568.80329        4.73307187        0.75027941
    15693.35372        5.89397504        0.85026633
    15818.90055        6.83201009        0.93260247
    15945.45175        4.14625221        0.74892422
    16073.01536        4.37188065        0.78009295
    16201.59949        5.21632006        0.85443587
    16331.21228        5.43095164        0.87578967
    16461.86198        6.44746600        0.99151950
    16593.55688        3.55515315        0.76589828
    16726.30533        4.51663739        0.87741082
    16860.11578        4.34157056        0.83563647
    16994.99670       12.15917995        1.47090621
    17130.95668       48.57589804        2.96696061
    17268.00433        6.56298215        1.10338623
    17406.14836        6.50974061        1.13381765
    17545.39755        5.44650126        1.03572231
    17685.76073        5.21360859        1.04302324
    17827.24682        6.66306621        1.19009058
    17969.86479        5.95562180        1.17321041
    18113.62371        5.65566132        1.15459393
    18258.53270        4.67912859        1.07048653
    18404.60096        5.75583096        1.20044974
    18551.83777        5.98492136        1.25661034
    18668.54259        4.61387603        1.45941229
# Data for spectrum :0
BANK 2 377 377 RALF    31606      253    31606 0.00800 FXYE
      991.64580        3.77299735        0.22153941
      999.57896        3.57215410        0.20240515
     1007.57560        3.82295040        0.19968685
     1015.63620        3.52990920        0.18212340
     1023.76129        3.20559038        0.16641520
     1031.95138        3.69639881        0.17283158
     1040.20699        3.77631838        0.16977319
     1048.52865        3.78394639        0.16506157
     1056.91688        3.99331880        0.16549793
     1065.37221        3.97039730        0.16072589
     1073.89519        3.92551837        0.15556619
     1082.48635        3.93036737        0.15569398
     1091.14624        3.84193186        0.15416884
     1099.87541        3.93124596        0.15624892
     1108.67441        3.75717943        0.15336818
     1117.54381        3.52446172        0.14893830
     1126.48416        3.78162788        0.15442768
     1135.49603        4.13194618        0.16195647
     1144.58000        3.58472719        0.15129370
     1153.73664        3.71495665        0.15440268
     1162.96654        3.63673761        0.15307673
     1172.27027        3.87323229        0.15825825
     1181.64843        3.83779770        0.15777326
     1191.10162        3.65562359        0.15426245
     1200.63043        3.81983885        0.15789402
     1210.23547        3.69243024        0.15580753
     1219.91736        3.72365371        0.15685008
     1229.67670        3.78452189        0.15856683
     1239.51411        3.70844506        0.15710912
     1249.43022        4.03154433        0.16398747
     1259.42566        3.77809166        0.15924426
     1269.50107        3.78968332        0.15950429
     1279.65708        3.79292201        0.16022361
     1289.89433        3.57283850        0.15582478
     1300.21349        3.61784198        0.15703794
     1310.61520        3.82773688        0.16170631
     1321.10012        3.51230714        0.15524263
     1331.66892        3.64566882        0.15830553
     1342.32227        4.19308763        0.17050124
     1353.06085        3.55835141        0.15731564
     1363.88534        3.69488233        0.16048240
     1374.79642        3.85641600        0.16459206
     1385.79479        3.45641578        0.15573741
     1396.88115        3.60637963        0.15933269
     1408.05620        3.77735812        0.16370332
     1419.32065        3.86815149        0.16611685
     1430.67521        3.42158399        0.15654716
     1442.12061        3.52641337        0.15906071
     1453.65758        3.60497651        0.16111678
     1465.28684        3.65531872        0.16240076
     1477.00913        3.64597938        0.16257814
     1488.82521        3.55212103        0.16088719
     1500.73581        3.26464808        0.15462022
     1512.74170        3.84614386        0.16792465
     1524.84363        3.60578456        0.16302922
     1537.04238        3.48457450        0.16036212
     1549.33872        3.54588921        0.16218135
     1561.73343        3.32956762        0.15744248
     1574.22729        3.90651216        0.17125097
     1586.82111        3.65944995        0.16580924
     1599.51568        3.59358685        0.16461759
     1612.31181        3.52301728        0.16304824
     1625.21030        3.55895722        0.16439522
     1638.21198        3.31562549        0.15880642
     1651.31768        3.29197467        0.15860795
     1664.52822        3.56649823        0.16542573
     1677.84445        3.31432936        0.15950163
     1691.26720        3.49173055        0.16445512
     1704.79734        3.16043803        0.15663042
     1718.43572        3.43280840        0.16335890
     1732.18320        3.26459499        0.15964033
     1746.04067        3.56787859        0.16730180
     1760.00900        3.28334880        0.16053405
     1774.08907        3.35333720        0.16269081
     1788.28178        3.57141595        0.16798043
     1802.58803        3.30585817        0.16229633
     1817.00874        3.43190669        0.16554655
     1831.54481        3.61473478        0.17030316
     1846.19717        3.56761551        0.16956962
     1860.96674        3.69889933        0.17284100
     1875.85448        3.54930312        0.16932917
     1890.86131        3.48353838        0.16838711
     1905.98821        3.27815820        0.16343745
     1921.23611        3.46119402        0.16883854
     1936.60600        3.53609243        0.17017485
     1952.09885        3.33157084        0.16588690
     1967.71564        3.27521890        0.16482498
     1983.45736        3.42290584        0.16872750
     1999.32502        3.15848465        0.16243032
     2015.31962        3.29359905        0.16568129
     2031.44218        3.46301456        0.17028237
     2047.69372        3.35173298        0.16783049
     2064.07527        3.37018661        0.16852820
     2080.58787        3.44570964        0.17106252
     2097.23257        3.20986813        0.16516751
     2114.01043        3.42475072        0.17087234
     2130.92252        3.30625684        0.16825350
     2147.96990        3.43320685        0.17125568
     2165.15366        3.13609449        0.16424683
     2182.47488        3.18710752        0.16562752
     2199.93468        3.19501760        0.16627892
     2217.53416        3.64655561        0.17777309
     2235.27443        3.35397722        0.17098739
     2253.15663        3.34340078        0.17042865
     2271.18188        3.56949490        0.17665802
     2289.35134        3.32336840        0.17062002
     2307.66615        3.31874516        0.17051426
     2326.12748        3.17563738        0.16698121
     2344.73650        3.04465607        0.16333377
     2363.49439        3.16539652        0.16694940
     2382.40234        3.07470168        0.16525706
     2401.46156        3.23974629        0.16946938
     2420.67326        3.35033975        0.17222820
     2440.03864        3.08494694        0.16556417
     2459.55895        3.17899339        0.16847724
     2479.23542        3.42497809        0.17493316
     2499.06931        3.34296655        0.17322178
     2519.06186        3.22342219        0.17027119
     2539.21436        3.17996663        0.16905536
     2559.52807        3.15804957        0.16866642
     2580.00429        3.29271847        0.17267774
     2600.64433        3.44735782        0.17731856
     2621.44948        3.16207863        0.16953609
     2642.42108        3.16773396        0.16977035
     2663.56045        3.18938075        0.17069866
     2684.86893        3.15875784        0.17035657
     2706.34788        3.26948556        0.17361620
     2727.99867        3.04671498        0.16774404
     2749.82266        3.29005491        0.17467630
     2771.82124        3.31971872        0.17577579
     2793.99581        3.19992884        0.17297882
     2816.34777        3.11080675        0.17062237
     2838.87856        3.32464817        0.17668613
     2861.58958        3.30938538        0.17675572
     2884.48230        3.26988612        0.17589559
     2907.55816        3.34996644        0.17849811
     2930.81862        3.07146605        0.17075897
     2954.26517        3.19279099        0.17443750
     2977.89929        3.19777272        0.17484447
     3001.72249        3.45660547        0.18255071
     3025.73627        3.10928109        0.17341752
     3049.94216        2.91450744        0.16787842
     3074.34170        3.04999653        0.17216723
     3098.93643        2.78525022        0.16517973
     3123.72792        3.30761734        0.18032488
     3148.71774        2.95982169        0.17098887
     3173.90749        2.91305808        0.17000853
     3199.29875        3.03904151        0.17368318
     3224.89314        3.08697000        0.17573372
     3250.69228        3.00412034        0.17356769
     3276.69782        3.07735655        0.17621664
     3302.91140        3.09284801        0.17706731
     3329.33469        3.36285687        0.18481886
     3355.96937        3.60649575        0.19215413
     3382.81713        3.43978360        0.18766734
     3409.87966        3.51289086        0.19005580
     3437.15870        3.14375706        0.18020351
     3464.65597        3.60922535        0.19344305
     3492.37322        3.22111640        0.18293197
     3520.31220        3.53030521        0.19181870
     3548.47470        3.28399019        0.18505089
     3576.86250        3.14306408        0.18167267
     3605.47740        3.44423808        0.18992934
     3634.32122        2.95123413        0.17655579
     3663.39579        2.87165254        0.17407920
     3692.70295        3.24178168        0.18473753
     3722.24458        3.62131935        0.19573831
     3752.02253        3.61002727        0.19573207
     3782.03871        3.81212139        0.20131670
     3812.29502        3.10328563        0.18239756
     3842.79338        3.28976477        0.18695467
     3873.53573        2.99963166        0.17924217
     3904.52402        2.75847316        0.17215256
     3935.76021        3.07253971        0.18134686
     3967.24629        3.57904530        0.19583402
     3998.98426        4.14495218        0.21121480
     4030.97614        3.11472673        0.18292324
     4063.22394        3.50547340        0.19422132
     4095.72974        3.48127732        0.19383057
     4128.49557        3.10500371        0.18290591
     4161.52354        3.48710796        0.19418366
     4194.81573        3.58865815        0.19742364
     4228.37425        3.01191071        0.18092526
     4262.20125        3.02773822        0.18131718
     4296.29886        3.62124934        0.19908698
     4330.66925        3.09246640        0.18337043
     4365.31460        2.85268985        0.17650831
     4400.23712        3.13986927        0.18527089
     4435.43902        3.12002696        0.18387752
     4470.92253        4.20400652        0.21401942
     4506.68991        3.43093662        0.19329860
     4542.74343        3.19569559        0.18694787
     4579.08537        3.43585632        0.19368198
     4615.71806        4.08884594        0.21138002
     4652.64380        3.66157339        0.20016021
     4689.86495        3.51269355        0.19630393
     4727.38387        3.01382157        0.18122560
     4765.20294        3.70954518        0.20147135
     4803.32457        4.29053462        0.21609514
     4841.75116        4.41848062        0.21952962
     4880.48517        3.16128204        0.18554272
     4919.52905        2.93053095        0.17866636
     4958.88529        3.02234438        0.18098713
     4998.55637        2.84530975        0.17552127
     5038.54482        2.74078233        0.17220527
     5078.85318        3.13132071        0.18336476
     5119.48400        3.79219715        0.20269205
     5160.43988        4.37127850        0.21761563
     5201.72339        5.84361899        0.25149171
     5243.33718        4.08423627        0.20968206
     5285.28388        3.33666148        0.18971330
     5327.56615        2.62922505        0.16825985
     5370.18668        2.80153451        0.17411277
     5413.14817        3.95772469        0.20642628
     5456.45336        4.59274914        0.22196227
     5500.10498        2.78450748        0.17278208
     5544.10582        2.67483091        0.16925779
     5588.45867        2.80612279        0.17390044
     5633.16634        2.54253470        0.16517245
     5678.23167        3.04202637        0.18072466
     5723.65752        4.95298059        0.23077908
     5769.44679        4.84632287        0.22801026
     5815.60236        7.50962251        0.28425268
     5862.12718        5.62853553        0.24632151
     5909.02420        5.60419074        0.24600507
     5956.29639        3.12028059        0.18326209
     6003.94676        2.82703679        0.17478129
     6051.97833        3.32956905        0.19066637
     6100.39416        3.71393839        0.20101206
     6149.19731        3.30031897        0.19023102
     6198.39089        2.92428569        0.17952096
     6247.97802        4.78851437        0.23025200
     6297.96184        3.50852148        0.19736895
     6348.34554        2.75321535        0.17488067
     6399.13230        2.82638145        0.17818528
     6450.32536        2.42903222        0.16530665
     6501.92796        2.80367450        0.17802309
     6553.94339        2.91244359        0.18178772
     6606.37494        7.30137475        0.28931540
     6659.22593        6.26496249        0.26915632
     6712.49974        3.10978799        0.18969871
     6766.19974        2.78504680        0.18063081
     6820.32934        4.20860537        0.22362011
     6874.89197        5.97952469        0.26756602
     6929.89111        2.98595502        0.18970446
     6985.33024        5.85807038        0.26722308
     7041.21288       12.18129699        0.38665533
     7097.54258        4.34651140        0.23221643
     7154.32292        2.98816635        0.19279883
     7211.55751        2.70434215        0.18479464
     7269.24997        2.53710909        0.17955924
     7327.40397        2.70162299        0.18693756
     7386.02320        2.97544619        0.19712230
     7445.11138        2.63757903        0.18618279
     7504.67227        2.88045302        0.19556107
     7564.70965        2.61996329        0.18824317
     7625.22733        3.93689132        0.23207533
     7686.22915       11.18176048        0.39329582
     7747.71898        6.74103574        0.30812885
     7809.70073        3.28276046        0.21642239
     7872.17834        9.97274632        0.37964106
     7935.15577        8.67017255        0.35644642
     7998.63701        3.28582448        0.21996782
     8062.62611        2.63103538        0.19885446
     8127.12712        2.76993865        0.20496277
     8192.14413        2.76650465        0.20676645
     8257.68129        2.77322954        0.20870349
     8323.74274        2.49895162        0.19909167
     8390.33268        2.69478088        0.20853212
     8457.45534        2.64869363        0.20875452
     8525.11498        2.66521119        0.21093519
     8593.31590        5.47659214        0.30579133
     8662.06243        3.59315028        0.24914736
     8731.35893        2.53012202        0.21104107
     8801.20980        3.34731716        0.24520943
     8871.61948        5.43202547        0.31429504
     8942.59244        3.08305443        0.24000171
     9014.13318        2.86311101        0.23296549
     9086.24624        2.72676685        0.22933780
     9158.93621        3.35416623        0.25709202
     9232.20770       13.10070361        0.51381122
     9306.06536        6.64453560        0.36836717
     9380.51389        3.04895585        0.25357817
     9455.55800        2.84679587        0.24662217
     9531.20246        2.70452539        0.24392483
     9607.45208        2.50489223        0.23682141
     9684.31170        2.80346688        0.25412120
     9761.78619        3.00572194        0.26508842
     9839.88048        3.16094647        0.27490065
     9918.59952       10.38226889        0.50592917
     9997.94832        5.22728168        0.36249930
    10077.93191        2.81844561        0.26888525
    10158.55536        2.62653084        0.26261884
    10239.82380        2.82470844        0.27625151
    10321.74239       15.85204390        0.66125209
    10404.31633       26.33498286        0.85990938
    10487.55086        4.96966504        0.37802953
    10571.45127        3.26537325        0.31062774
    10656.02288        2.75296657        0.28717612
    10741.27106        4.06306236        0.35630152
    10827.20123       13.65612180        0.66070493
    10913.81884        6.60488790        0.46308342
    11001.12939        3.17867116        0.32720663
    11089.13843        2.84603574        0.31322925
    11177.85154        3.45045683        0.34821733
    11267.27435        2.51644336        0.30240094
    11357.41254        2.25867165        0.28962064
    11448.27184        2.98161924        0.33925047
    11539.85802        2.12281315        0.28871575
    11632.17688        3.03775136        0.35016250
    11725.23430        2.56089809        0.32448533
    11819.03617        2.47042677        0.32185022
    11913.58846        2.35052504        0.31788203
    12008.89717        2.65780911        0.34252594
    12104.96835       15.76382020        0.85365923
    12201.80809       20.78769222        0.99356676
    12299.42256        4.02357158        0.44662034
    12397.81794        2.79241040        0.37734428
    12497.00048        2.98723020        0.39446585
    12596.97649        2.68641091        0.37802364
    12697.75230        2.79999632        0.39389559
    12799.33432        3.03963208        0.41235507
    12901.72899        2.50896346        0.38344584
    13004.94282        2.06628192        0.35179295
    13108.98237        3.11796499        0.44165524
    13213.85422        1.96959367        0.35260645
    13319.56506        2.43966660        0.40343123
    13426.12158        1.99948489        0.36870544
    13533.53055        2.43669359        0.41301089
    13641.79880        2.88703253        0.45520874
    13750.93319        2.35324437        0.41822642
    13860.94065        2.72848261        0.45533276
    13971.82818        2.87349533        0.47550414
    14083.60280        2.82579471        0.47721787
    14196.27162        2.27699654        0.43546653
    14309.84180        2.21967662        0.43212051
    14424.32053        2.82751056        0.49848876
    14539.71510        1.73616441        0.38975626
    14656.03282        2.25797648        0.45109512
    14773.28108        1.51940911        0.37886953
    14891.46733        2.37375717        0.48355446
    15010.59907        2.58399720        0.50948200
    15130.68386        2.97112659        0.55680401
    15251.72933       13.41180305        1.20149271
    15373.74316       13.11006564        1.19775217
    15496.73311        2.93721590        0.57611391
    15620.70697        3.16730902        0.60752199
    15745.67263        2.00614921        0.49245917
    15871.63801        2.73412212        0.58711910
    15998.61112        2.39020830        0.55738714
    16126.60000        2.74777117        0.60202627
    16255.61280        2.05791120        0.53165554
    16385.65771        2.72031630        0.62812964
    16516.74297        3.00778325        0.67744461
    16648.87691        2.72001682        0.65430968
    16782.06793        1.96159366        0.56763096
    16916.32447        2.21193075        0.60700994
    17051.65507        7.01980828        1.10309015
    17188.06831       35.98969460        2.54139269
    17325.57285        9.79697183        1.34740095
    17464.17744        4.40962606        0.92191855
    17603.89086       27.87541982        2.39454788
    17744.72198       29.86591645        2.50075276
    17886.67976        4.48298079        0.99085377
    18029.77320        2.99002783        0.81882590
    18174.01138        1.72366636        0.63687090
    18319.40347        2.32641087        0.74644998
    18465.95870        3.89129432        1.00479843
    18613.68637        2.97663102        0.92562892
    18762.59586        3.98411267        1.13757412
    18912.69663        3.49820737        1.14060147
    19063.99820        3.36159205        1.17243591
    19216.51019        2.50408292        1.05748071
    19370.24227        7.52746777        2.01817335
    19525.20421        3.19282483        1.42651589
    19681.40584       14.67819019        3.33485586
    19780.97457       85.41990517       16.54467674
# Data for spectrum :0
BANK 3 383 383 RALF    30904      247    30904 0.00800 FXYE
      969.62126        3.21103365        0.23824036
      977.37823        3.37863405        0.23177045
      985.19726        3.69958397        0.22609217
      993.07884        3.41766868        0.20828139
     1001.02347        3.38882951        0.19979271
     1009.03165        3.57304440        0.19441075
     1017.10391        3.78243789        0.19505987
     1025.24074        3.66367387        0.18754984
     1033.44266        3.58768900        0.17686381
     1041.71021        3.50636084        0.17213273
     1050.04389        3.67165076        0.17219282
     1058.44424        3.65281947        0.16624291
     1066.91179        3.38998798        0.15800686
     1075.44709        3.69394541        0.16157792
     1084.05066        3.93972932        0.16544678
     1092.72307        3.82796866        0.16130565
     1101.46485        3.63040897        0.15392171
     1110.27657        3.48380249        0.14988885
     1119.15878        3.43064856        0.14934162
     1128.11205        3.38964320        0.14855396
     1137.13695        3.51886446        0.15176043
     1146.23405        3.64322634        0.15489375
     1155.40392        3.74548837        0.15762073
     1164.64715        3.71260969        0.15695184
     1173.96433        3.78355317        0.15870706
     1183.35604        3.73374779        0.15825199
     1192.82289        3.68376504        0.15683942
     1202.36547        3.62109760        0.15608685
     1211.98440        3.71107476        0.15870958
     1221.68027        3.67155421        0.15779564
     1231.45371        3.49960756        0.15473846
     1241.30534        3.73774052        0.16008743
     1251.23579        3.36549616        0.15230045
     1261.24567        3.61804716        0.15820522
     1271.33564        3.89410353        0.16507970
     1281.50632        3.52506296        0.15721759
     1291.75837        3.94628907        0.16639590
     1302.09244        3.49282964        0.15630230
     1312.50918        3.59555166        0.15966352
     1323.00925        3.75932698        0.16360196
     1333.59333        3.72408443        0.16364723
     1344.26208        3.69776329        0.16211151
     1355.01617        3.45850145        0.15735396
     1365.85630        3.64684763        0.16187038
     1376.78315        3.29609140        0.15373221
     1387.79742        3.61880515        0.16168491
     1398.89980        3.42970519        0.15776875
     1410.09099        3.47056234        0.15966994
     1421.37172        3.46773327        0.15971889
     1432.74270        3.72636648        0.16583763
     1444.20464        3.81802058        0.16782357
     1455.75827        3.43960839        0.15968615
     1467.40434        3.43473855        0.15992848
     1479.14358        3.57286227        0.16363432
     1490.97672        3.71104424        0.16739976
     1502.90454        3.74196768        0.16804756
     1514.92777        3.77017017        0.16856949
     1527.04720        3.46468779        0.16287605
     1539.26357        3.37679951        0.16036602
     1551.57768        3.38901463        0.16150164
     1563.99030        3.57356457        0.16558514
     1576.50223        3.13218722        0.15570533
     1589.11424        3.43398306        0.16275918
     1601.82716        3.56654795        0.16669736
     1614.64178        3.49571070        0.16510811
     1627.55891        3.85816149        0.17425312
     1640.57938        3.64959622        0.16958793
     1653.70402        3.54691023        0.16731742
     1666.93365        3.15732250        0.15710636
     1680.26912        3.63864001        0.16978778
     1693.71127        3.60222416        0.16923896
     1707.26096        3.56850087        0.16946127
     1720.91905        3.49156184        0.16687988
     1734.68640        3.49603734        0.16716541
     1748.56389        3.52435261        0.16903526
     1762.55240        3.26912607        0.16264815
     1776.65282        3.54116895        0.17014838
     1790.86604        3.44105233        0.16739031
     1805.19297        3.33415809        0.16499475
     1819.63452        3.45827391        0.16779503
     1834.19159        3.40396646        0.16732746
     1848.86513        3.37260339        0.16688875
     1863.65605        3.24953955        0.16364987
     1878.56530        3.38458166        0.16764568
     1893.59382        3.41343917        0.16879991
     1908.74257        3.54192515        0.17281899
     1924.01251        3.24690810        0.16531660
     1939.40461        3.49864537        0.17189282
     1954.91985        3.32005161        0.16699827
     1970.55920        3.27024390        0.16659712
     1986.32368        3.22510718        0.16462565
     2002.21427        3.27708314        0.16739395
     2018.23198        3.55260127        0.17395786
     2034.37784        3.16654378        0.16510630
     2050.65286        3.24132338        0.16680075
     2067.05808        3.15243122        0.16421943
     2083.59455        3.31626183        0.17049438
     2100.26330        3.38009462        0.17145105
     2117.06541        3.32311869        0.17072316
     2134.00193        3.43120939        0.17340731
     2151.07395        3.60873183        0.17839921
     2168.28254        3.23188727        0.16887981
     2185.62880        3.28710219        0.17027697
     2203.11383        2.97852987        0.16180288
     2220.73874        3.36129729        0.17210199
     2238.50465        3.38244757        0.17374817
     2256.41269        3.14919381        0.16771304
     2274.46399        3.30325860        0.17200511
     2292.65970        3.16294215        0.16833173
     2311.00098        3.49821499        0.17763312
     2329.48899        3.48139973        0.17731373
     2348.12490        3.16824573        0.16898104
     2366.90990        3.52850585        0.17839654
     2385.84518        3.15307643        0.16872891
     2404.93194        3.35943708        0.17515203
     2424.17140        3.18447741        0.17174812
     2443.56477        3.25159257        0.17263398
     2463.11329        3.33512785        0.17563642
     2482.81819        3.25424379        0.17403181
     2502.68074        3.31119631        0.17516151
     2522.70218        3.09755166        0.16995843
     2542.88380        3.04087920        0.16803312
     2563.22687        3.06514863        0.16814224
     2583.73269        3.35733158        0.17663810
     2604.40255        3.36364773        0.17783627
     2625.23777        2.90108958        0.16475979
     2646.23967        3.04818692        0.16943531
     2667.40959        3.02602635        0.16896974
     2688.74886        3.05971464        0.16902762
     2710.25885        3.27867703        0.17659546
     2731.94093        3.30185426        0.17787528
     2753.79645        3.26036846        0.17627981
     2775.82682        2.95930112        0.16826498
     2798.03344        3.48781292        0.18216522
     2820.41771        3.23774300        0.17676883
     2842.98105        3.14634808        0.17438863
     2865.72490        3.33862403        0.17920614
     2888.65070        3.24160446        0.17704394
     2911.75990        3.18611288        0.17520625
     2935.05398        2.92903044        0.16958334
     2958.53441        2.66880303        0.16206854
     2982.20269        3.12309349        0.17572421
     3006.06031        3.11467005        0.17467445
     3030.10879        3.07695276        0.17481941
     3054.34966        2.83240205        0.16796050
     3078.78446        3.23252399        0.17970671
     3103.41473        3.31697527        0.18168496
     3128.24205        3.26234229        0.18135461
     3153.26799        3.13980016        0.17719155
     3178.49413        3.19165365        0.17852085
     3203.92209        3.08988518        0.17684342
     3229.55346        3.27585667        0.18356546
     3255.38989        2.64402700        0.16501047
     3281.43301        3.62328719        0.19314062
     3307.68447        3.98649592        0.20277783
     3334.14595        3.37414865        0.18806944
     3360.81912        3.02309711        0.17775131
     3387.70567        3.69645482        0.19717842
     3414.80732        3.15771386        0.18162858
     3442.12577        2.93485698        0.17602820
     3469.66278        3.52160485        0.19249436
     3497.42008        2.95250338        0.17605675
     3525.39944        2.90693304        0.17620664
     3553.60264        3.28649372        0.18713775
     3582.03146        3.09788593        0.18109036
     3610.68771        2.63954722        0.16769538
     3639.57321        2.83008730        0.17430796
     3668.68980        2.74007530        0.17189890
     3698.03932        3.22322101        0.18599284
     3727.62363        4.29125163        0.21552750
     3757.44462        2.92509527        0.17630952
     3787.50418        3.13145167        0.18487444
     3817.80421        4.19121597        0.21378789
     3848.34664        3.84671809        0.20555656
     3879.13342        3.39583352        0.19312956
     3910.16649        3.12982662        0.18585963
     3941.44782        3.10781046        0.18692453
     3972.97940        3.79870358        0.20576053
     4004.76323        4.35908559        0.21986116
     4036.80134        3.58238074        0.19810721
     4069.09575        2.97116725        0.18087315
     4101.64852        2.61467844        0.16989939
     4134.46171        3.01233829        0.18369501
     4167.53740        2.82063934        0.17737981
     4200.87770        3.01252971        0.18257849
     4234.48472        3.44824393        0.19536225
     4268.36060        3.86087062        0.20652405
     4302.50748        4.88650848        0.23346028
     4336.92754        4.37058329        0.21970660
     4371.62296        3.72644632        0.20442775
     4406.59595        3.10510233        0.18519005
     4441.84871        2.60355243        0.17049016
     4477.38350        3.11906654        0.18718490
     4513.20257        4.11027906        0.21328434
     4549.30819        3.24243384        0.18958451
     4585.70266        2.33500286        0.16117239
     4622.38828        2.94431538        0.18046729
     4659.36739        3.00499664        0.18253477
     4696.64232        2.47117200        0.16588590
     4734.21546        3.62712741        0.20252158
     4772.08919        4.99153533        0.23576731
     4810.26590        4.90343205        0.23286597
     4848.74803        5.76072814        0.25168601
     4887.53801        4.76222069        0.22931464
     4926.63832        3.81614751        0.20507529
     4966.05142        2.59473309        0.16950537
     5005.77983        2.79857358        0.17584687
     5045.82607        3.53123782        0.19776315
     5086.19268        3.30955445        0.19154721
     5126.88222        3.05654998        0.18374797
     5167.89728        3.33780188        0.19199310
     5209.24046        3.87522858        0.20560706
     5250.91438        3.07764080        0.18453996
     5292.92170        2.55632299        0.16844452
     5335.26507        2.53979914        0.16817538
     5377.94719        2.58038583        0.16862097
     5420.97077        2.63519289        0.17038301
     5464.33854        4.24227447        0.21728840
     5508.05324        6.83944119        0.27379604
     5552.11767        4.08452287        0.21157150
     5596.53461        2.96994991        0.18025662
     5641.30689        3.06599086        0.18393055
     5686.43734        5.14788291        0.23868294
     5731.92884        4.14495614        0.21300743
     5777.78427        3.37195759        0.19340070
     5824.00655        8.82415520        0.31337452
     5870.59860        7.22459246        0.28229799
     5917.56339        3.17165635        0.18790924
     5964.90389        2.60352221        0.17045428
     6012.62313        2.57579110        0.17051824
     6060.72411        2.82833157        0.17752268
     6109.20990        2.44427066        0.16640239
     6158.08358        2.86008622        0.17882558
     6207.34825        2.58501937        0.17194678
     6257.00704        2.92991746        0.18223438
     6307.06309        2.58235860        0.17044632
     6357.51960        6.74118524        0.27809637
     6408.37976        8.90075132        0.31974027
     6459.64679        4.46981581        0.22677990
     6511.32397        5.17740355        0.24682136
     6563.41456       10.19641140        0.34436661
     6615.92188        5.28443157        0.24928518
     6668.84925        2.97574964        0.18802057
     6722.20004        2.80407436        0.18191337
     6775.97765        2.46378618        0.17231372
     6830.18547        2.43124740        0.17164325
     6884.82695        2.40753307        0.17211437
     6939.90557        2.35600432        0.17077815
     6995.42481        2.17994451        0.16432242
     7051.38821        2.20614150        0.16671212
     7107.79931        3.81003688        0.22002676
     7164.66171        5.24126521        0.25949812
     7221.97900        2.91013440        0.19324165
     7279.75483        2.89719201        0.19537961
     7337.99287        4.85705743        0.25307675
     7396.69682        3.66934105        0.22193596
     7455.87039        2.26270522        0.17476155
     7515.51735        2.77844359        0.19724271
     7575.64149        2.62799532        0.19205444
     7636.24662        7.04707232        0.31757053
     7697.33660       10.56502974        0.38732786
     7758.91529        3.99131168        0.23989236
     7820.98661        2.52081690        0.19064185
     7883.55451        2.56216881        0.19607607
     7946.62294        2.58219269        0.19558099
     8010.19593        2.68633634        0.20424589
     8074.27749        2.69763130        0.20460308
     8138.87171        2.72151957        0.20668914
     8203.98269        5.47810047        0.29783245
     8269.61455        7.98573312        0.35980672
     8335.77146        3.92742707        0.25355820
     8402.45764        2.64594665        0.21081483
     8469.67730        2.83204468        0.21803176
     8537.43472        6.26071385        0.33339645
     8605.73419       24.38665566        0.65560918
     8674.58007       14.85257607        0.51412492
     8743.97671        4.27074599        0.27871750
     8813.92852        2.81389487        0.22872543
     8884.43995        3.14621240        0.24679916
     8955.51547        7.55110014        0.38631189
     9027.15959        9.66508472        0.43599482
     9099.37687        3.74966655        0.27242679
     9172.17188        2.54417124        0.22849708
     9245.54926        2.62839412        0.23533516
     9319.51365        2.50816649        0.23005404
     9394.06976        2.30806769        0.22455150
     9469.22232        2.36658121        0.22708507
     9544.97610        2.20648517        0.22698507
     9621.33591        2.69326029        0.25111710
     9698.30660        2.40798941        0.23965183
     9775.89305        2.56126650        0.24996481
     9854.10019        2.65774152        0.26068133
     9932.93299        3.01342821        0.27692870
    10012.39646        5.60834811        0.38393750
    10092.49563       22.31331539        0.76680511
    10173.23559       10.45430135        0.52963869
    10254.62148        3.07001886        0.28828702
    10336.65845        3.02088260        0.29371572
    10419.35172        1.98902034        0.23923374
    10502.70653        2.31224482        0.26189439
    10586.72818        2.39741726        0.26972858
    10671.42201        2.77468866        0.29554076
    10756.79339        1.86427001        0.24453382
    10842.84773        2.05285164        0.25524372
    10929.59052        1.96920522        0.25628445
    11017.02724        2.42052718        0.28885313
    11105.16346        2.82740397        0.32248678
    11194.00477        1.80761274        0.25542001
    11283.55680        2.60248462        0.31182720
    11373.82526        2.20829823        0.29216966
    11464.81586        2.55030338        0.31633333
    11556.53439        2.42214086        0.30869441
    11648.98666        2.83662116        0.34827383
    11742.17855        2.24624177        0.30857650
    11836.11598        1.78179532        0.27613275
    11930.80491        1.92185045        0.28950666
    12026.25135        2.55097793        0.34008791
    12122.46136        1.92171249        0.30020540
    12219.44105        2.83640033        0.37288875
    12317.19658        2.79328011        0.37357275
    12415.73415        2.71743474        0.37372414
    12515.06003        2.38518262        0.35630611
    12615.18051        5.27719424        0.54345915
    12716.10195       15.10751361        0.91902941
    12817.83077        8.13095621        0.67636005
    12920.37341        3.07803905        0.43218083
    13023.73640        1.98911649        0.34482825
    13127.92629        1.77667741        0.33246094
    13232.94970        2.54639735        0.40968098
    13338.81330        2.52523147        0.41154784
    13445.52381        2.54323569        0.41954862
    13553.08800        2.38505713        0.41068481
    13661.51270        2.28239146        0.41913387
    13770.80480        3.07338957        0.48793270
    13880.97124        3.26880433        0.51488957
    13992.01901        3.42846080        0.53125591
    14103.95516        4.00230658        0.56923862
    14216.78680       22.70415809        1.38369325
    14330.52110       31.05870377        1.64372087
    14445.16527        6.53713614        0.76506810
    14560.72659        8.76786488        0.91403834
    14677.21240       29.40713152        1.67531336
    14794.63010       13.10947180        1.12831412
    14912.98714        2.64637953        0.52024812
    15032.29104        2.76612493        0.53165567
    15152.54937        2.43480226        0.50279172
    15273.76976        2.45918798        0.52609969
    15395.95992        2.03471379        0.47183561
    15519.12760        2.20542937        0.51021365
    15643.28062        2.89813268        0.58723718
    15768.42686        3.17752982        0.61899570
    15894.57428        3.70143626        0.69365205
    16021.73087        2.48528171        0.58962590
    16149.90472        2.02840402        0.53092356
    16279.10396        5.34417519        0.92137826
    16409.33679       45.22880879        2.62622754
    16540.61148       55.16286868        2.89978489
    16672.93638        9.80250967        1.25524973
    16806.31987        3.55337046        0.74868720
    16940.77043        3.29346837        0.75557945
    17076.29659        2.40305807        0.65758413
    17212.90696        2.20627302        0.63016005
    17350.61022        3.07746988        0.76527831
    17489.41510        4.02156299        0.88632581
    17629.33042        1.76424467        0.62447671
    17770.36506        3.66634922        0.89175299
    17912.52798        2.94936213        0.80376599
    18055.82821        2.65989480        0.81160280
    18200.27483        3.20092304        0.94730389
    18345.87703        2.71108411        0.89458046
    18492.64405        3.04974550        0.96760025
    18640.58520        5.10630689        1.34527704
    18789.70988        4.17192926        1.29398060
    18940.02756        3.04640655        1.09809678
    19091.54778        2.93997126        1.11086815
    19244.28016        1.71311872        0.87615843
    19398.23441        1.72529171        0.95392218
    19553.42028        5.22474609        1.84051199
    19709.84764        4.99805324        1.90962379
    19867.52642        4.76947080        1.95735801
    20026.46664        3.26864222        1.80137005
    20186.67837        2.91151327        1.78212425
    20292.72820        1.14133799        2.16726802
# Data for spectrum :0
BANK 4 392 392 RALF    29760      238    29760 0.00800 FXYE
      933.71329        2.96938809        0.26626208
      941.18300        3.39511795        0.28461543
      948.71246        3.15596322        0.27543270
      956.30216        2.70791543        0.23690666
      963.95258        3.33932569        0.25374973
      971.66420        3.31330555        0.23630444
      979.43751        3.13818023        0.22450127
      987.27302        3.14703912        0.21239258
      995.17120        3.67894929        0.22490670
     1003.13257        3.36438000        0.20750805
     1011.15763        3.29647110        0.19980662
     1019.24689        3.33466836        0.19612906
     1027.40087        3.32514536        0.18801499
     1035.62007        3.61840732        0.19388732
     1043.90503        3.32062497        0.17790826
     1052.25627        3.53459215        0.18486344
     1060.67432        3.53642999        0.17623530
     1069.15972        3.42814629        0.17388972
     1077.71300        3.51880685        0.17096873
     1086.33470        3.60148068        0.17110427
     1095.02538        3.62030451        0.16983605
     1103.78558        3.79644597        0.16970425
     1112.61587        3.63217698        0.16618792
     1121.51679        3.41280191        0.15586834
     1130.48893        3.49981123        0.15794726
     1139.53284        3.42257151        0.15367245
     1148.64910        3.58777434        0.15554009
     1157.83829        3.58972925        0.15580895
     1167.10100        3.51822649        0.15474476
     1176.43781        3.54750434        0.15587273
     1185.84931        3.74279069        0.16031092
     1195.33610        3.70752518        0.15935791
     1204.89879        3.54054619        0.15678372
     1214.53798        3.33825961        0.15266571
     1224.25429        3.47296983        0.15555472
     1234.04832        3.43410711        0.15504426
     1243.92071        3.56060951        0.15841723
     1253.87207        3.38401411        0.15461363
     1263.90305        3.86005367        0.16565223
     1274.01428        3.61087575        0.16058203
     1284.20639        3.61058524        0.16061860
     1294.48004        3.74321551        0.16447083
     1304.83588        3.40159258        0.15702318
     1315.27457        3.61087000        0.16202275
     1325.79676        3.71206328        0.16502562
     1336.40314        3.85160633        0.16816921
     1347.09436        3.61523475        0.16295385
     1357.87112        3.67518732        0.16473678
     1368.73409        3.47794587        0.16008741
     1379.68396        3.49695898        0.16114802
     1390.72143        3.56533359        0.16278255
     1401.84720        3.45393942        0.16063273
     1413.06198        3.63200817        0.16528079
     1424.36648        3.48052064        0.16172872
     1435.76141        3.45730880        0.16142088
     1447.24750        3.42852231        0.16070890
     1458.82548        3.51913087        0.16309259
     1470.49608        3.36478967        0.16000946
     1482.26005        3.52330245        0.16381302
     1494.11813        3.50940213        0.16407979
     1506.07108        3.82748902        0.17189052
     1518.11965        3.70632695        0.16900397
     1530.26460        3.73956491        0.17049577
     1542.50672        3.65414623        0.16805031
     1554.84677        3.30918959        0.16067434
     1567.28555        3.40267235        0.16317805
     1579.82383        3.65744271        0.16948939
     1592.46242        3.90209112        0.17498941
     1605.20212        3.24127556        0.16022897
     1618.04374        3.72544024        0.17199550
     1630.98809        3.77366544        0.17288680
     1644.03599        3.50104305        0.16649508
     1657.18828        3.33751479        0.16354445
     1670.44579        3.17024444        0.15902133
     1683.80935        3.59886902        0.16999192
     1697.27983        3.34832637        0.16422216
     1710.85807        3.17173688        0.15998314
     1724.54493        3.59890030        0.17112720
     1738.34129        3.34306770        0.16565601
     1752.24802        3.63627123        0.17277231
     1766.26601        3.56832709        0.17139663
     1780.39613        3.60959416        0.17260655
     1794.63930        2.99096441        0.15734792
     1808.99642        3.36138301        0.16672356
     1823.46839        3.40083858        0.16826098
     1838.05614        3.43466036        0.16945966
     1852.76059        3.39120976        0.16874874
     1867.58267        2.95802214        0.15787371
     1882.52333        3.16341776        0.16363978
     1897.58352        3.40435507        0.16986367
     1912.76419        3.44998008        0.17153113
     1928.06630        3.48113422        0.17237530
     1943.49083        3.21371184        0.16544825
     1959.03876        3.25059473        0.16686347
     1974.71107        3.54826403        0.17507253
     1990.50876        3.29800119        0.16872872
     2006.43283        3.34417630        0.17056503
     2022.48429        3.38493422        0.17166113
     2038.66416        3.13536605        0.16504645
     2054.97348        3.49313904        0.17499350
     2071.41326        3.25194943        0.16865369
     2087.98457        3.38241892        0.17255951
     2104.68845        3.09592738        0.16521482
     2121.52595        3.15464270        0.16723641
     2138.49816        3.40493712        0.17405339
     2155.60615        3.54821187        0.17761933
     2172.85100        3.24268620        0.17043089
     2190.23380        3.23812780        0.16934423
     2207.75567        3.44558343        0.17536387
     2225.41772        3.36674784        0.17407911
     2243.22106        3.26723544        0.17165388
     2261.16683        3.40866818        0.17578142
     2279.25617        3.37780112        0.17455217
     2297.49021        3.23678676        0.17140866
     2315.87014        3.11631718        0.16884367
     2334.39710        3.26336860        0.17253178
     2353.07227        3.11676214        0.16908232
     2371.89685        3.09754814        0.16854279
     2390.87203        3.50946127        0.17945539
     2409.99900        3.71266628        0.18475378
     2429.27900        3.11313623        0.16992607
     2448.71323        2.79201397        0.16123621
     2468.30293        3.10681381        0.16975862
     2488.04936        3.25232161        0.17420636
     2507.95375        3.03069096        0.16855002
     2528.01738        3.28650484        0.17486930
     2548.24152        3.53555042        0.18211872
     2568.62745        3.16770095        0.17280223
     2589.17647        3.12094637        0.17192782
     2609.88988        3.25591775        0.17571312
     2630.76900        3.02257888        0.17009752
     2651.81516        3.15064485        0.17307504
     2673.02968        3.24525476        0.17567774
     2694.41391        3.24693527        0.17646314
     2715.96923        3.03267085        0.17083679
     2737.69698        3.18473830        0.17467443
     2759.59855        3.36189683        0.18030797
     2781.67534        2.87988087        0.16721060
     2803.92875        2.78041719        0.16381923
     2826.36018        2.92681535        0.16918506
     2848.97106        2.71512140        0.16232623
     2871.76283        3.83164290        0.19426297
     2894.73693        3.18090855        0.17735488
     2917.89482        3.13244045        0.17694993
     2941.23798        3.41190968        0.18403092
     2964.76789        3.50409952        0.18683831
     2988.48603        2.74003599        0.16544335
     3012.39392        2.81371468        0.16797475
     3036.49307        3.09479210        0.17669878
     3060.78501        3.37415853        0.18480022
     3085.27129        3.81286736        0.19632359
     3109.95346        3.14008064        0.17871267
     3134.83309        2.80269690        0.17020467
     3159.91176        2.75612728        0.16802605
     3185.19105        2.78914599        0.16991567
     3210.67258        2.70765009        0.16780814
     3236.35796        2.62605804        0.16541778
     3262.24882        3.30097281        0.18587394
     3288.34681        3.47448297        0.19116413
     3314.65359        4.04728917        0.20647989
     3341.17082        3.56908839        0.19394065
     3367.90018        3.20915942        0.18510600
     3394.84338        2.63914382        0.16818579
     3422.00213        2.54272844        0.16463267
     3449.37815        2.75284476        0.17170892
     3476.97317        3.38381416        0.19104054
     3504.78896        2.99732904        0.17996933
     3532.82727        2.71052675        0.17144771
     3561.08989        2.64939817        0.16971308
     3589.57861        2.46096657        0.16256871
     3618.29524        2.90431666        0.17773098
     3647.24160        3.42301952        0.19348385
     3676.41953        4.01831901        0.21003901
     3705.83089        5.10495140        0.23694882
     3735.47754        5.06926680        0.23661341
     3765.36136        4.06044683        0.21118147
     3795.48425        3.48107791        0.19651371
     3825.84812        2.80471930        0.17615152
     3856.45491        2.74190057        0.17453287
     3887.30654        3.33305584        0.19222122
     3918.40500        3.34733763        0.19312533
     3949.75224        2.52531440        0.16766608
     3981.35026        2.90241201        0.17906869
     4013.20106        3.47719777        0.19665317
     4045.30667        2.70098704        0.17357203
     4077.66912        2.30516815        0.16027797
     4110.29047        2.36223699        0.16206439
     4143.17280        2.50653857        0.16817417
     4176.31818        2.45136522        0.16572562
     4209.72872        4.02160616        0.21266547
     4243.40655        5.49884949        0.24897010
     4277.35381        3.67623938        0.20452360
     4311.57264        2.51094224        0.16767707
     4346.06522        3.00007369        0.18384137
     4380.83374        4.07931932        0.21457595
     4415.88041        3.62011633        0.20224378
     4451.20745        3.34598588        0.19408360
     4486.81711        7.04776588        0.28259631
     4522.71165        5.87680730        0.25814300
     4558.89334        3.12190482        0.18735180
     4595.36449        2.44286711        0.16612698
     4632.12740        2.41250880        0.16499484
     4669.18442        2.81010595        0.17805474
     4706.53790        2.51179718        0.16878948
     4744.19020        2.19458222        0.15725190
     4782.14372        2.27111014        0.16012031
     4820.40087        2.65745455        0.17355214
     4858.96408        2.70027146        0.17402211
     4897.83579        5.50749467        0.24865860
     4937.01848        7.28551749        0.28709293
     4976.51463        4.03858298        0.21380805
     5016.32674        4.70092931        0.22950872
     5056.45736        7.81706952        0.29563888
     5096.90902        4.08927202        0.21444807
     5137.68429        2.50886343        0.16723878
     5178.78576        2.34675700        0.16223211
     5220.21605        2.32407474        0.16136705
     5261.97778        2.22031905        0.15738346
     5304.07360        2.47857900        0.16642278
     5346.50619        2.49623095        0.16723054
     5389.27824        2.28208930        0.15949609
     5432.39246        2.00081698        0.14983845
     5475.85160        3.23578605        0.18978282
     5519.65842        4.01417713        0.21193076
     5563.81568        2.71423413        0.17426114
     5608.32621        2.84590711        0.17889785
     5653.19282        3.92670784        0.21023326
     5698.41836        3.35245274        0.19474072
     5744.00571        2.59999662        0.17163701
     5789.95775        2.40573368        0.16492190
     5836.27742        2.59088739        0.17050489
     5882.96764        5.68516692        0.25350172
     5930.03138        8.17440155        0.30494025
     5977.47163        4.05017751        0.21531068
     6025.29140        2.63316623        0.17303368
     6073.49373        2.33068823        0.16305452
     6122.08168        2.14100671        0.15671458
     6171.05834        2.33506604        0.16359324
     6220.42680        2.17099623        0.15783251
     6270.19022        2.69666360        0.17732264
     6320.35174        4.81322736        0.23604801
     6370.91455        6.83290858        0.28331071
     6421.88187        3.70554158        0.20930186
     6473.25692        2.40926842        0.16893315
     6525.04298        2.51943782        0.17290706
     6577.24332        5.75258695        0.26137325
     6629.86127       17.34916313        0.45791322
     6682.90016       13.87323725        0.41048265
     6736.36336        4.63386327        0.23706669
     6790.25427        2.88755468        0.18824639
     6844.57630        2.78072776        0.18537537
     6899.33291        6.01301747        0.27242545
     6954.52758        7.99362532        0.31717758
     7010.16380        4.10303495        0.22841001
     7066.24511        2.51854934        0.17874672
     7122.77507        2.59029071        0.18346271
     7179.75727        2.53289952        0.18261870
     7237.19533        2.13426014        0.16782011
     7295.09289        2.32346424        0.17631726
     7353.45363        2.45973022        0.18248546
     7412.28126        2.22510879        0.17372571
     7471.57951        2.13816519        0.17168626
     7531.35215        2.55261346        0.18945757
     7591.60296        2.36327398        0.18429813
     7652.33579        2.53289175        0.19022732
     7713.55447        6.20982906        0.29996503
     7775.26291       16.58991247        0.49527346
     7837.46501       10.97381126        0.40628796
     7900.16473        3.83084940        0.24139672
     7963.36605        2.16321136        0.18220489
     8027.07298        2.73689206        0.20596670
     8091.28956        2.20806427        0.18527437
     8156.01988        2.30790314        0.19033857
     8221.26804        2.37687782        0.19579313
     8287.03818        1.95163667        0.17813021
     8353.33449        2.06050401        0.18502151
     8420.16117        2.30963374        0.19713913
     8487.52245        2.32117115        0.19921067
     8555.42263        1.91568704        0.18285179
     8623.86602        2.30003270        0.20285032
     8692.85694        1.98731052        0.18975100
     8762.39980        2.12487479        0.19828736
     8832.49900        2.19299032        0.20269989
     8903.15899        2.06737124        0.19908125
     8974.38426        2.27604899        0.20981378
     9046.17934        2.05721539        0.20253104
     9118.54877        1.99569000        0.20105352
     9191.49716        2.61368938        0.23226084
     9265.02914        2.30625685        0.21926771
     9339.14937        2.27380818        0.21995700
     9413.86257        2.03722342        0.21040435
     9489.17347        2.48212181        0.23554487
     9565.08685        1.95136193        0.21096462
     9641.60755        2.59717348        0.24622735
     9718.74041        4.90726554        0.33981925
     9796.49033       12.12668734        0.54207154
     9874.86225        7.96135380        0.44222140
     9953.86115        2.94522902        0.27198968
    10033.49204        2.28737100        0.24182255
    10113.75998        2.00365600        0.22937274
    10194.67006        2.30245978        0.24823363
    10276.22742        2.32091541        0.25240291
    10358.43724        2.56718725        0.27062696
    10441.30474        2.04604606        0.24489601
    10524.83517        2.46203132        0.27264882
    10609.03386        2.29750729        0.26546985
    10693.90613        2.52541374        0.28073214
    10779.45738        2.39746881        0.27643030
    10865.69303        4.22819543        0.37262691
    10952.61858       20.38266046        0.82856220
    11040.23953       24.56350564        0.92055385
    11128.56144        8.85266492        0.56038463
    11217.58993        9.22375042        0.57575237
    11307.33065       24.56471601        0.95857793
    11397.78930       17.03116641        0.80741326
    11488.97161        4.21434231        0.40806474
    11580.88339        3.02825646        0.34883466
    11673.53045        2.80352225        0.33853144
    11766.91870        3.04316432        0.35510654
    11861.05405        2.70009921        0.34029067
    11955.94248        3.25520411        0.38310064
    12051.59002        2.58522689        0.34488914
    12148.00274        2.73958052        0.35961141
    12245.18676        2.91361532        0.37580382
    12343.14826        2.39860250        0.34471175
    12441.89344        2.56168105        0.36127631
    12541.42859        6.21580130        0.57394215
    12641.76002       39.97389662        1.47513172
    12742.89410       49.93851452        1.67792715
    12844.83725       17.85727127        1.01963116
    12947.59595        3.87653530        0.47862335
    13051.17672        2.65919161        0.40159410
    13155.58613        2.71780417        0.41352583
    13260.83082        3.33529123        0.46420787
    13366.91747        3.28222834        0.46618866
    13473.85281        2.40760282        0.40185079
    13581.64363        2.90694645        0.45039314
    13690.29678        2.14958033        0.39714509
    13799.81915        3.64411192        0.52412084
    13910.21770        3.45639807        0.51595546
    14021.49945        2.65264764        0.45911451
    14133.67144        2.35793193        0.43870969
    14246.74081        2.03179168        0.41418312
    14360.71474        2.46300007        0.46301220
    14475.60046        2.68473432        0.49404471
    14591.40526        2.24484033        0.44972832
    14708.13650        3.13362351        0.54458884
    14825.80160        3.21841985        0.56098012
    14944.40801        3.27913124        0.58037025
    15063.96327        2.48156517        0.51410246
    15184.47498        3.24115893        0.59301643
    15305.95078        2.54197723        0.53001744
    15428.39838        3.30452157        0.61558969
    15551.82557        2.12838634        0.49874547
    15676.24018        2.54286539        0.55007840
    15801.65010        2.75810498        0.58264343
    15928.06330        3.00495380        0.61514932
    16055.48780        2.20102498        0.54263646
    16183.93171        4.25139705        0.75984736
    16313.40316        2.54000937        0.61153597
    16443.91039        3.11749710        0.68767656
    16575.46167        2.30097015        0.59838368
    16708.06536        1.88520652        0.54515579
    16841.72989        2.02902050        0.57814447
    16976.46372        2.54055551        0.66913007
    17112.27543        2.37462766        0.64820161
    17249.17364        3.05293157        0.75436602
    17387.16703        2.75102624        0.73819421
    17526.26436        4.41882704        0.96703658
    17666.47448        2.75510411        0.78820725
    17807.80627        1.95143304        0.68642322
    17950.26872        2.18878859        0.73576192
    18093.87087        2.56289541        0.82658923
    18238.62184        2.76684874        0.87613801
    18384.53082        2.89790600        0.92420136
    18531.60706        2.73093997        0.92292318
    18679.85992        3.22057932        1.07133436
    18829.29880        2.60561572        0.95419666
    18979.93319        2.04861942        0.88770843
    19131.77265        2.17807752        0.94890602
    19284.82683        4.70930785        1.44862912
    19439.10545        3.98640382        1.38378303
    19594.61829        3.95160248        1.48730908
    19751.37524        3.59230839        1.42288937
    19909.38624        2.65114485        1.32371364
    20068.66133        2.59789420        1.32367735
    20229.21062        4.95852804        1.90766022
    20391.04431        1.10721738        0.99761016
    20554.17266        1.17873571        1.11379725
    20718.60604        4.52268341        2.41706592
    20884.35489        2.10770640        1.60239603
    21017.48477        3.92543377        3.12266204
